Crank Angle,Cylinder-Pre,Cylinder-Tem,PistWallHeatFlow,HeadWallHeatFlow,LinerWallHeatFlow,BlowByHeatFlow,BlowBy,TurbinePower,Out-Pre,Out-Tem,Turbine-in-Pre,Turbine-in-Tem,Turbine-out-Pre,Turbine-out-Tem
0,616332.0,925.699,-8.54219,-5.4612,-0.386281,0,0,6995.36,111960,920.691,136922,736.961,112248.0,704.368
3,615308.0,927.47,-8.56236,-5.47998,-0.392643,0,0,6322.9,105191,925.076,137639,740.214,109451.0,701.54
6,610297.0,928.596,-8.52642,-5.46067,-0.408144,0,0,5420.21,103343,927.34,131095,733.868,107161.0,696.643
9,601284.0,928.746,-8.42815,-5.39822,-0.431994,0,0,4592.95,101492,928.284,124561,727.066,104430.0,691.45
12,588446.0,927.659,-8.26524,-5.29042,-0.463039,0,0,3723.5,99441,927.604,118483,720.446,101882.0,686.152
15,572102.0,925.144,-8.03881,-5.13763,-0.499785,0,0,2817.81,102003,925.138,112265,713.077,99578.6,680.859
18,552746.0,921.106,-7.75426,-4.94341,-0.540548,0,0,2016.17,105126,928.357,106391,705.541,97514.9,675.485
21,530978.0,915.543,-7.4202,-4.71371,-0.583578,0,0,1446.73,107566,932.931,102962,701.409,96017.6,672.185
24,507453.0,908.535,-7.04746,-4.4562,-0.627201,0,0,1036.07,110870,939.055,101730,700.741,95234.1,671.823
27,482829.0,900.224,-6.64785,-4.17932,-0.669938,0,0,842.938,114683,945.814,101826,702.4,94938.9,673.798
30,457583.0,890.538,-6.22775,-3.88739,-0.710105,0,0,865.903,116893,949.624,103404,706.796,94991.6,678.142
33,432384.0,879.917,-5.80299,-3.59208,-0.747151,0,0,1142.64,119258,953.698,106811,714.642,95608.8,684.581
36,407680.0,868.603,-5.38315,-3.30033,-0.780515,0,0,1546.06,121978,958.278,111036,724.089,96701.8,691.674
39,383801.0,856.808,-4.97542,-3.01734,-0.809865,0,0,2073.98,124166,961.865,115182,733.427,97614.6,696.69
42,360986.0,844.728,-4.58522,-2.74701,-0.835105,0,0,2839.68,126091,965.007,119629,743.129,98541.4,699.684
45,339384.0,832.53,-4.2161,-2.4919,-0.856288,0,0,3767.72,128448,968.802,123841,752.518,99388.5,702.335
48,319073.0,820.351,-3.87014,-2.25349,-0.873583,0,0,4683.56,131020,972.852,127324,760.546,99804.8,704.876
51,300081.0,808.304,-3.54824,-2.03239,-0.887229,0,0,5681.08,133567,976.79,130558,767.769,99810.8,707.056
54,282360.0,796.368,-3.24894,-1.82743,-0.89722,0,0,6712.06,136497,981.249,133491,773.002,99534.6,708.353
57,265828.0,784.452,-2.96976,-1.63671,-0.903391,0,0,7701.55,139948,986.378,136002,777.121,99012.8,709.291
60,250543.0,772.895,-2.71399,-1.46273,-0.906874,0,0,8636.81,143541,991.578,138133,780.094,98196.6,709.799
63,236446.0,761.737,-2.48045,-1.30461,-0.908042,0,0,9527.39,147043,996.533,140090,782.437,97115.4,710.129
66,223471.0,751.007,-2.26779,-1.16131,-0.907253,0,0,10394.5,150447,1001.25,142112,784.278,95904.3,710.436
69,211545.0,740.721,-2.07448,-1.03171,-0.904829,0,0,11289.3,153621,1005.56,144348,785.54,94657.6,710.654
72,200585.0,730.855,-1.89865,-0.914395,-0.900946,0,0,12274.5,156448,1009.33,146942,786.058,93477.9,711.285
75,190536.0,721.458,-1.73938,-0.808699,-0.896037,0,0,13273.3,158963,1012.65,149950,785.607,92784.9,711.71
78,181335.0,712.53,-1.59529,-0.713601,-0.890377,0,0,14189.9,161216,1015.58,153257,783.614,92769.7,711.879
81,172917.0,704.066,-1.46504,-0.628097,-0.884182,0,0,14999.2,163029,1017.91,156391,778.265,92995.1,710.539
84,165207.0,695.962,-1.34647,-0.550578,-0.877348,0,0,15611.9,164139,1019.32,158941,771.077,93324.4,708.384
87,158222.0,688.252,-1.23932,-0.48072,-0.870463,0,0,15844.6,164804,1020.19,160874,764.99,94371.0,706.893
90,151990.0,681.172,-1.14492,-0.419519,-0.86473,0,0,15656.9,165406,1020.98,162407,760.916,96412.9,707.57
93,146336.0,674.577,-1.06033,-0.364988,-0.859404,0,0,15225.8,166175,1021.98,163537,758.134,98909.2,709.229
96,141182.0,668.415,-0.984151,-0.316156,-0.854338,0,0,14669.9,166795,1022.77,163786,755.561,101317.0,710.893
99,136478.0,662.661,-0.915478,-0.272378,-0.849548,0,0,14019.8,166753,1022.73,163349,754.138,103770.0,713.338
102,132185.0,657.293,-0.853512,-0.233093,-0.845049,0,0,13202.2,166309,1022.18,162509,752.504,106335.0,715.506
105,128263.0,652.29,-0.797565,-0.197816,-0.840857,0,0,12305.3,165249,1020.82,161430,751.139,108783.0,717.158
108,124682.0,647.63,-0.747015,-0.166108,-0.836977,0,0,11367.0,162906,1017.74,159601,749.13,110728.0,717.66
111,121412.0,643.297,-0.701333,-0.1376,-0.83342,0,0,10485.2,158809,1012.27,156549,745.841,111494.0,716.085
114,118426.0,639.272,-0.660035,-0.111956,-0.83018,0,0,9614.79,153549,1005.09,152614,741.639,111328.0,712.74
117,115698.0,635.536,-0.622662,-0.0888603,-0.82723,0,0,8657.96,148122,997.469,148535,737.385,110862.0,707.699
120,113208.0,632.075,-0.588858,-0.0680696,-0.824572,0,0,7615.69,142715,989.648,143915,732.584,110080.0,702.63
123,110939.0,628.883,-0.558362,-0.0494052,-0.822242,0,0,6598.54,136642,980.552,138127,726.33,108523.0,697.001
126,108879.0,625.96,-0.530981,-0.0327364,-0.820301,0,0,5648.44,129468,969.301,131459,718.751,106282.0,690.693
129,107016.0,623.299,-0.506494,-0.0179133,-0.818772,0,0,4744.85,122604,957.926,125081,711.569,103887.0,684.565
132,105333.0,620.883,-0.484626,-0.00474585,-0.817624,0,0,3781.17,116228,946.76,118909,704.643,101660.0,678.888
135,103817.0,618.694,-0.465112,0.00694845,-0.816811,0,0,2848.58,109381,934.058,112895,697.498,99620.4,673.42
138,102456.0,616.709,-0.44769,0.0173536,-0.816274,0,0,2083.31,104188,923.908,108405,692.219,98098.8,669.17
141,101237.0,614.904,-0.432097,0.026656,-0.81594,0,0,1453.26,102007,915.015,105427,688.875,97121.4,666.414
144,100152.0,613.257,-0.418111,0.0350175,-0.81575,0,0,972.449,100918,912.09,103287,686.73,96414.9,664.904
147,99192.4,611.749,-0.405544,0.0425745,-0.815659,0,0,740.0,100759,910.821,102600,687.034,96050.2,665.355
150,98354.8,610.369,-0.394269,0.0494215,-0.815653,0,0,651.434,102229,911.739,103033,689.452,96082.0,667.781
153,97635.6,609.109,-0.384203,0.0556185,-0.815739,0,0,725.793,105075,913.515,105046,694.863,96871.5,672.339
156,97030.3,607.959,-0.375229,0.0612521,-0.81589,0,0,948.309,108320,913.763,108540,702.976,98201.1,678.641
159,96534.9,606.919,-0.367328,0.0663262,-0.816127,0,0,1332.61,111296,911.158,112503,712.094,99367.8,684.278
162,96146.1,606.008,-0.360566,0.0707776,-0.816511,0,0,1853.96,113487,904.819,116241,721.04,100268.0,687.782
165,95860.3,605.235,-0.354986,0.0745584,-0.817086,0,0,2558.48,114949,894.629,120051,730.41,101143.0,690.743
168,95675.2,604.61,-0.350622,0.0776342,-0.817889,0,0,3364.26,116621,881.768,123909,739.79,101831.0,694.114
171,95587.8,604.141,-0.347495,0.0799784,-0.81894,0,0,4269.4,118733,863.27,127848,749.492,102116.0,697.869
174,95596.1,603.833,-0.345635,0.0815598,-0.820262,0,0,5284.91,120758,844.244,131591,758.726,101904.0,701.001
177,95698.9,603.692,-0.345074,0.0823479,-0.821876,0,0,6354.41,122380,827.378,134793,766.638,101249.0,703.065
180,95895.3,603.723,-0.345831,0.0823238,-0.823792,0,0,7457.75,123899,813.557,137418,772.199,100245.0,703.698
183,96183.4,603.926,-0.347907,0.0814806,-0.825996,0,0,8525.89,125431,801.726,139507,776.032,98995.6,703.479
186,96561.8,604.3,-0.351304,0.0798105,-0.828471,0,0,9539.75,126778,790.595,141501,778.797,97646.4,702.988
189,97031.4,604.846,-0.35605,0.0772943,-0.83122,0,0,10549.6,127726,778.619,143744,781.54,96258.2,702.736
192,97594.6,605.568,-0.362178,0.0739097,-0.834248,0,0,11623.4,128846,765.304,146492,784.294,95011.0,702.834
195,98254.8,606.462,-0.36971,0.0696491,-0.837553,0,0,12645.1,130976,751.867,149718,786.617,94421.7,703.727
198,99012.8,607.529,-0.378663,0.0644979,-0.841109,0,0,13560.3,133200,739.938,153144,787.775,94492.3,705.23
201,99870.9,608.768,-0.38908,0.0584279,-0.844903,0,0,14378.5,134795,730.533,156301,786.841,94756.5,706.758
204,100836.0,610.18,-0.401011,0.0514142,-0.84894,0,0,15028.1,136089,724.746,158796,783.154,95100.9,707.595
207,101910.0,611.768,-0.414527,0.0434071,-0.853213,0,0,15366.0,137154,722.481,160694,775.102,95892.7,706.707
210,103100.0,613.538,-0.429727,0.0343369,-0.857726,0,0,15383.2,138077,722.52,162171,767.635,97301.4,706.552
213,104415.0,615.496,-0.446722,0.0241399,-0.862505,0,0,15179.6,138985,723.718,163449,761.823,99168.0,707.074
216,105864.0,617.64,-0.465608,0.0127632,-0.867553,0,0,14750.4,140031,725.648,164026,757.563,101352.0,708.115
219,107455.0,619.974,-0.486481,0.000143034,-0.872844,0,0,14171.5,140445,727.543,163926,754.063,103759.0,710.168
222,109196.0,622.5,-0.509463,-0.0138012,-0.878367,0,0,13486.5,140639,730.161,163225,751.298,105964.0,711.935
225,111099.0,625.222,-0.534712,-0.0291642,-0.884129,0,0,12746.8,140887,733.784,162257,749.457,107885.0,713.505
228,113176.0,628.144,-0.562386,-0.0460527,-0.890113,0,0,11896.2,140707,737.55,160701,747.136,109574.0,714.453
231,115435.0,631.269,-0.592634,-0.0645665,-0.896278,0,0,10972.2,139814,740.996,157929,743.916,110593.0,714.323
234,117888.0,634.596,-0.625618,-0.0848138,-0.902576,0,0,10085.2,138924,744.238,154045,739.452,110608.0,712.51
237,120547.0,638.131,-0.661546,-0.106936,-0.908975,0,0,9163.7,138421,747.534,149891,734.733,110207.0,709.572
240,123428.0,641.879,-0.700656,-0.131095,-0.915442,0,0,8142.48,138080,750.535,145379,729.659,109560.0,705.75
243,126544.0,645.842,-0.743168,-0.157442,-0.921915,0,0,7111.32,137710,753.105,139776,723.254,108198.0,700.701
246,129909.0,650.018,-0.789306,-0.18613,-0.928311,0,0,6127.24,137737,755.81,133009,715.208,106044.0,693.592
249,133541.0,654.414,-0.839369,-0.217367,-0.934576,0,0,5195.25,138589,759.099,126320,707.318,103633.0,686.366
252,137460.0,659.036,-0.893709,-0.251396,-0.940661,0,0,4221.59,140242,762.884,120112,699.91,101366.0,679.597
255,141687.0,663.889,-0.952671,-0.288458,-0.946486,0,0,3246.26,142738,767.235,113949,692.205,99175.3,673.167
258,146242.0,668.975,-1.01661,-0.328804,-0.951953,0,0,2371.82,146343,772.471,108434,684.761,97323.1,667.302
261,151150.0,674.302,-1.08597,-0.372749,-0.956984,0,0,1660.52,150725,674.057,104758,679.961,96175.2,663.191
264,156439.0,679.896,-1.1614,-0.420773,-0.961568,0,0,1095.5,153422,678.199,102318,677.031,95405.3,660.503
267,162148.0,685.772,-1.24357,-0.47333,-0.965662,0,0,742.106,154286,681.432,100902,675.708,94861.6,659.269
270,168313.0,691.943,-1.33314,-0.530904,-0.969201,0,0,593.81,153472,683.849,100973,677.055,94803.7,660.285
273,174978.0,698.423,-1.43091,-0.594045,-0.972122,0,0,627.514,151640,685.816,102965,681.988,95541.2,664.283
276,182151.0,705.06,-1.536,-0.662036,-0.973721,0,0,870.616,149742,687.742,106902,690.404,96950.3,670.499
279,189907.0,711.961,-1.65024,-0.736217,-0.974308,0,0,1246.73,148535,690.164,110935,699.073,97991.9,675.777
282,198317.0,719.202,-1.77529,-0.817804,-0.97403,0,0,1758.82,148291,693.329,114787,707.537,98868.3,679.015
285,207442.0,726.791,-1.91222,-0.907564,-0.972755,0,0,2472.78,148905,697.292,118723,716.264,99812.3,681.603
288,217341.0,734.735,-2.06214,-1.00631,-0.970324,0,0,3287.95,150133,701.935,122287,724.625,100485.0,684.462
291,228078.0,743.035,-2.22625,-1.11489,-0.966554,0,0,4183.44,151718,707.366,125788,733.672,100688.0,687.7
294,239716.0,751.692,-2.40576,-1.2342,-0.961243,0,0,5194.04,154098,713.718,129599,743.657,100556.0,691.22
297,252322.0,760.7,-2.60191,-1.36517,-0.954164,0,0,6245.5,157079,720.796,133333,752.785,100170.0,694.18
300,265956.0,770.048,-2.8159,-1.50867,-0.945071,0,0,7334.89,160196,728.412,136595,760.656,99511.0,696.327
303,280677.0,779.72,-3.0489,-1.66559,-0.933709,0,0,8468.61,163436,736.604,139441,765.741,98578.8,696.863
306,296537.0,789.693,-3.30196,-1.83673,-0.919825,0,0,9563.83,166814,745.451,141980,769.681,97455.6,696.819
309,313577.0,799.938,-3.57597,-2.02278,-0.90318,0,0,10569.9,169650,755.415,144196,772.537,96273.3,696.399
312,331699.0,810.102,-3.86651,-2.22038,-0.882724,0,0,11530.5,172497,765.792,146365,774.861,95203.8,696.064
315,351010.0,820.424,-4.17799,-2.43297,-0.859129,0,0,12384.1,174787,776.662,148730,776.707,94647.3,696.35
318,371477.0,830.857,-4.51012,-2.66045,-0.832309,0,0,13111.0,177111,787.199,151366,777.887,94664.7,697.314
321,393018.0,841.321,-4.86158,-2.90197,-0.802214,0,0,13799.7,179008,797.805,154152,777.965,94883.7,698.377
324,415506.0,851.727,-5.23025,-3.15609,-0.768938,0,0,14439.7,179144,809.377,156838,776.422,95203.8,699.339
327,438764.0,861.976,-5.61306,-3.4207,-0.732739,0,0,14876.1,178347,821.298,159229,771.424,95952.6,699.789
330,462523.0,871.943,-6.00528,-3.6925,-0.694009,0,0,15040.4,177769,832.751,161276,766.859,97326.5,700.901
333,486422.0,881.485,-6.40054,-3.96702,-0.653332,0,0,14973.2,176838,843.968,163053,763.964,99192.6,703.031
336,510031.0,890.454,-6.79122,-4.23884,-0.611547,0,0,14618.4,173918,855.725,163866,761.474,101376.0,705.13
339,532860.0,898.698,-7.16853,-4.50173,-0.569733,0,0,14038.1,169201,867.637,163691,759.29,103815.0,707.684
342,554233.0,905.899,-7.51856,-4.74553,-0.52893,0,0,13258.1,164104,878.548,162748,757.463,106204.0,710.39
345,573548.0,911.997,-7.83196,-4.96374,-0.490679,0,0,12424.7,159455,887.698,161474,755.539,108271.0,712.137
348,590170.0,916.892,-8.09837,-5.14899,-0.456494,0,0,11475.2,153001,896.332,159671,753.426,110162.0,713.547
351,603509.0,920.455,-8.30744,-5.2939,-0.427803,0,0,10472.6,143381,904.996,156923,750.304,111508.0,713.981
354,612983.0,922.559,-8.44915,-5.39129,-0.405817,0,0,9587.4,135351,911.118,153267,746.232,111730.0,712.82
357,618960.0,924.306,-8.54635,-5.4592,-0.392603,0,0,8721.72,128078,916.407,149389,742.018,111389.0,710.653
360,621632.0,926.27,-8.61115,-5.5072,-0.389275,0,0,7758.36,119936,921.82,145152,737.47,110806.0,707.757
